z[nm],Ec[eV],Ev[eV],EF[eV],n[1/cm^3],p[1/cm^3]
0.000,0.700,-3.622,0.000,0.000e+00,2.209e-42
1.000,0.671,-3.651,0.000,5.710e-04,1.101e-42
2.000,0.643,-3.679,0.000,3.174e-02,3.637e-43
3.000,0.614,-3.708,0.000,1.426e+00,1.202e-43
4.000,0.585,-3.737,0.000,5.355e+01,3.970e-44
5.000,0.557,-3.765,0.000,1.685e+03,1.312e-44
6.000,0.528,-3.794,0.000,4.450e+04,4.252e-45
6.838,0.504,-3.818,0.000,5.684e+05,1.613e-45
7.507,0.485,-3.837,0.000,3.842e+06,7.469e-46
8.062,0.469,-3.853,0.000,1.745e+07,3.972e-46
8.536,0.456,-3.866,0.000,6.055e+07,2.327e-46
8.948,0.444,-3.878,0.000,1.733e+08,1.464e-46
9.313,0.433,-3.889,0.000,4.289e+08,9.731e-47
9.639,0.424,-3.898,0.000,9.485e+08,6.754e-47
9.935,0.416,-3.907,0.000,1.917e+09,4.855e-47
10.205,0.408,-3.914,0.000,3.602e+09,3.593e-47
10.453,0.401,-3.921,0.000,6.370e+09,2.725e-47
10.683,0.394,-3.928,0.000,1.070e+10,2.110e-47
10.897,0.388,-3.934,0.000,1.722e+10,1.663e-47
11.097,0.382,-3.940,0.000,2.670e+10,1.332e-47
11.285,0.377,-3.945,0.000,4.007e+10,1.081e-47
11.462,0.372,-3.950,0.000,5.846e+10,8.883e-48
11.629,0.367,-3.955,0.000,8.319e+10,7.378e-48
11.787,0.363,-3.960,0.000,1.158e+11,6.187e-48
11.938,0.358,-3.964,0.000,1.580e+11,5.234e-48
12.082,0.354,-3.968,0.000,2.118e+11,4.464e-48
12.219,0.350,-3.972,0.000,2.796e+11,3.834e-48
12.350,0.346,-3.976,0.000,3.637e+11,3.315e-48
12.476,0.343,-3.979,0.000,4.669e+11,2.883e-48
12.596,0.339,-3.983,0.000,5.925e+11,2.522e-48
12.712,0.336,-3.986,0.000,7.437e+11,2.217e-48
12.824,0.333,-3.989,0.000,9.243e+11,1.958e-48
12.932,0.330,-3.992,0.000,1.139e+12,1.738e-48
13.036,0.327,-3.995,0.000,1.391e+12,1.548e-48
13.137,0.324,-3.998,0.000,1.686e+12,1.385e-48
13.234,0.321,-4.001,0.000,2.029e+12,1.243e-48
13.329,0.318,-4.004,0.000,2.427e+12,1.120e-48
13.420,0.316,-4.006,0.000,2.885e+12,1.012e-48
13.509,0.313,-4.009,0.000,3.411e+12,9.168e-49
13.595,0.311,-4.011,0.000,4.012e+12,8.332e-49
13.679,0.308,-4.014,0.000,4.696e+12,7.592e-49
13.761,0.306,-4.016,0.000,5.473e+12,6.936e-49
13.840,0.304,-4.018,0.000,6.353e+12,6.351e-49
13.918,0.302,-4.021,0.000,7.346e+12,5.829e-49
13.993,0.299,-4.023,0.000,8.464e+12,5.362e-49
14.067,0.297,-4.025,0.000,9.721e+12,4.942e-49
14.139,0.295,-4.027,0.000,1.113e+13,4.563e-49
14.209,0.293,-4.029,0.000,1.271e+13,4.222e-49
14.277,0.291,-4.031,0.000,1.447e+13,3.913e-49
14.344,0.289,-4.033,0.000,1.644e+13,3.633e-49
14.410,0.287,-4.035,0.000,1.864e+13,3.378e-49
14.474,0.286,-4.036,0.000,2.108e+13,3.146e-49
14.537,0.284,-4.038,0.000,2.380e+13,2.935e-49
14.599,0.282,-4.040,0.000,2.682e+13,2.741e-49
14.659,0.280,-4.042,0.000,3.017e+13,2.564e-49
14.718,0.279,-4.043,0.000,3.389e+13,2.401e-49
14.776,0.277,-4.045,0.000,3.801e+13,2.252e-49
14.833,0.275,-4.047,0.000,4.258e+13,2.114e-49
14.889,0.274,-4.048,0.000,4.763e+13,1.988e-49
14.944,0.272,-4.050,0.000,5.322e+13,1.871e-49
14.997,0.271,-4.051,0.000,5.940e+13,1.762e-49
15.050,0.269,-4.053,0.000,6.622e+13,1.662e-49
15.102,0.268,-4.054,0.000,7.376e+13,1.569e-49
15.153,0.266,-4.056,0.000,8.208e+13,1.483e-49
15.204,0.265,-4.057,0.000,9.125e+13,1.402e-49
15.253,0.263,-4.059,0.000,1.014e+14,1.328e-49
15.302,0.262,-4.060,0.000,1.125e+14,1.258e-49
15.349,0.261,-4.062,0.000,1.248e+14,1.193e-49
15.396,0.259,-4.063,0.000,1.383e+14,1.133e-49
15.443,0.258,-4.064,0.000,1.532e+14,1.076e-49
15.488,0.257,-4.066,0.000,1.696e+14,1.023e-49
15.533,0.255,-4.067,0.000,1.876e+14,9.733e-50
15.578,0.254,-4.068,0.000,2.073e+14,9.267e-50
15.621,0.253,-4.069,0.000,2.290e+14,8.830e-50
15.664,0.252,-4.071,0.000,2.529e+14,8.419e-50
15.707,0.250,-4.072,0.000,2.790e+14,8.033e-50
15.749,0.249,-4.073,0.000,3.077e+14,7.669e-50
15.790,0.248,-4.074,0.000,3.391e+14,7.327e-50
15.830,0.247,-4.075,0.000,3.735e+14,7.004e-50
15.871,0.246,-4.076,0.000,4.112e+14,6.700e-50
15.910,0.244,-4.078,0.000,4.524e+14,6.412e-50
15.949,0.243,-4.079,0.000,4.975e+14,6.140e-50
15.988,0.242,-4.080,0.000,5.468e+14,5.884e-50
16.026,0.241,-4.081,0.000,6.006e+14,5.641e-50
16.063,0.240,-4.082,0.000,6.593e+14,5.410e-50
16.101,0.239,-4.083,0.000,7.234e+14,5.192e-50
16.137,0.238,-4.084,0.000,7.933e+14,4.986e-50
16.174,0.237,-4.085,0.000,8.694e+14,4.790e-50
16.209,0.236,-4.086,0.000,9.524e+14,4.603e-50
16.245,0.235,-4.087,0.000,1.043e+15,4.426e-50
16.280,0.234,-4.088,0.000,1.141e+15,4.258e-50
16.314,0.233,-4.089,0.000,1.248e+15,4.098e-50
16.348,0.232,-4.090,0.000,1.364e+15,3.946e-50
16.382,0.231,-4.091,0.000,1.489e+15,3.801e-50
16.416,0.230,-4.092,0.000,1.626e+15,3.663e-50
16.449,0.229,-4.093,0.000,1.774e+15,3.532e-50
16.481,0.228,-4.094,0.000,1.935e+15,3.406e-50
16.514,0.227,-4.095,0.000,2.109e+15,3.286e-50
16.546,0.226,-4.096,0.000,2.297e+15,3.172e-50
16.577,0.225,-4.097,0.000,2.501e+15,3.063e-50
16.609,0.224,-4.098,0.000,2.722e+15,2.958e-50
16.640,0.224,-4.098,0.000,2.960e+15,2.859e-50
16.670,0.223,-4.099,0.000,3.217e+15,2.763e-50
16.701,0.222,-4.100,0.000,3.495e+15,2.672e-50
16.731,0.221,-4.101,0.000,3.794e+15,2.584e-50
16.760,0.220,-4.102,0.000,4.117e+15,2.501e-50
16.790,0.219,-4.103,0.000,4.466e+15,2.420e-50
16.819,0.218,-4.104,0.000,4.841e+15,2.343e-50
16.848,0.218,-4.104,0.000,5.244e+15,2.270e-50
16.876,0.217,-4.105,0.000,5.678e+15,2.199e-50
16.905,0.216,-4.106,0.000,6.145e+15,2.131e-50
16.933,0.215,-4.107,0.000,6.647e+15,2.066e-50
16.961,0.214,-4.108,0.000,7.186e+15,2.003e-50
16.988,0.214,-4.108,0.000,7.765e+15,1.943e-50
17.015,0.213,-4.109,0.000,8.386e+15,1.885e-50
17.043,0.212,-4.110,0.000,9.052e+15,1.829e-50
17.069,0.211,-4.111,0.000,9.765e+15,1.776e-50
17.096,0.211,-4.112,0.000,1.053e+16,1.724e-50
17.122,0.210,-4.112,0.000,1.135e+16,1.675e-50
17.148,0.209,-4.113,0.000,1.222e+16,1.627e-50
17.174,0.208,-4.114,0.000,1.316e+16,1.581e-50
17.200,0.208,-4.115,0.000,1.416e+16,1.537e-50
17.225,0.207,-4.115,0.000,1.523e+16,1.494e-50
17.251,0.206,-4.116,0.000,1.638e+16,1.453e-50
17.276,0.205,-4.117,0.000,1.760e+16,1.413e-50
17.300,0.205,-4.117,0.000,1.890e+16,1.375e-50
17.325,0.204,-4.118,0.000,2.029e+16,1.338e-50
17.349,0.203,-4.119,0.000,2.177e+16,1.302e-50
17.374,0.203,-4.120,0.000,2.335e+16,1.268e-50
17.398,0.202,-4.120,0.000,2.503e+16,1.234e-50
17.421,0.201,-4.121,0.000,2.682e+16,1.202e-50
17.445,0.201,-4.122,0.000,2.873e+16,1.171e-50
17.468,0.200,-4.122,0.000,3.076e+16,1.141e-50
17.492,0.199,-4.123,0.000,3.291e+16,1.112e-50
17.515,0.199,-4.124,0.000,3.520e+16,1.084e-50
17.538,0.198,-4.124,0.000,3.763e+16,1.057e-50
17.560,0.197,-4.125,0.000,4.022e+16,1.031e-50
17.583,0.197,-4.126,0.000,4.296e+16,1.005e-50
17.605,0.196,-4.126,0.000,4.587e+16,9.804e-51
17.628,0.195,-4.127,0.000,4.895e+16,9.566e-51
17.650,0.195,-4.127,0.000,5.222e+16,9.335e-51
17.671,0.194,-4.128,0.000,5.569e+16,9.111e-51
17.693,0.193,-4.129,0.000,5.936e+16,8.894e-51
17.715,0.193,-4.129,0.000,6.325e+16,8.684e-51
17.736,0.192,-4.130,0.000,6.737e+16,8.480e-51
17.757,0.192,-4.131,0.000,7.172e+16,8.282e-51
17.779,0.191,-4.131,0.000,7.633e+16,8.090e-51
17.800,0.190,-4.132,0.000,8.120e+16,7.904e-51
17.820,0.190,-4.132,0.000,8.635e+16,7.724e-51
17.841,0.189,-4.133,0.000,9.178e+16,7.549e-51
17.862,0.189,-4.133,0.000,9.753e+16,7.379e-51
17.882,0.188,-4.134,0.000,1.036e+17,7.213e-51
17.902,0.187,-4.135,0.000,1.100e+17,7.053e-51
17.922,0.187,-4.135,0.000,1.167e+17,6.897e-51
17.942,0.186,-4.136,0.000,1.239e+17,6.746e-51
17.962,0.186,-4.136,0.000,1.314e+17,6.599e-51
17.982,0.185,-4.137,0.000,1.393e+17,6.456e-51
18.001,0.185,-4.138,0.000,1.476e+17,6.317e-51
18.021,0.184,-4.138,0.000,1.564e+17,6.182e-51
18.040,0.183,-4.139,0.000,1.656e+17,6.050e-51
18.060,0.183,-4.139,0.000,1.754e+17,5.922e-51
18.079,0.182,-4.140,0.000,1.856e+17,5.798e-51
18.098,0.182,-4.140,0.000,1.964e+17,5.677e-51
18.116,0.181,-4.141,0.000,2.077e+17,5.559e-51
18.135,0.181,-4.141,0.000,2.196e+17,5.445e-51
18.154,0.180,-4.142,0.000,2.321e+17,5.333e-51
18.172,0.180,-4.142,0.000,2.452e+17,5.224e-51
18.191,0.179,-4.143,0.000,2.590e+17,5.118e-51
18.209,0.179,-4.143,0.000,2.735e+17,5.015e-51
18.227,0.178,-4.144,0.000,2.887e+17,4.915e-51
18.245,0.178,-4.145,0.000,3.047e+17,4.817e-51
18.263,0.177,-4.145,0.000,3.214e+17,4.721e-51
18.281,0.177,-4.146,0.000,3.390e+17,4.628e-51
18.299,0.176,-4.146,0.000,3.574e+17,4.538e-51
18.316,0.176,-4.147,0.000,3.767e+17,4.449e-51
18.334,0.175,-4.147,0.000,3.969e+17,4.363e-51
18.351,0.175,-4.148,0.000,4.180e+17,4.279e-51
18.368,0.174,-4.148,0.000,4.402e+17,4.197e-51
18.386,0.174,-4.149,0.000,4.634e+17,4.117e-51
18.403,0.173,-4.149,0.000,4.877e+17,4.039e-51
18.420,0.173,-4.150,0.000,5.131e+17,3.963e-51
18.437,0.172,-4.150,0.000,5.397e+17,3.888e-51
18.454,0.172,-4.151,0.000,5.676e+17,3.816e-51
18.470,0.171,-4.151,0.000,5.966e+17,3.745e-51
18.487,0.171,-4.152,0.000,6.270e+17,3.675e-51
18.503,0.170,-4.152,0.000,6.588e+17,3.608e-51
18.520,0.170,-4.152,0.000,6.920e+17,3.542e-51
18.536,0.169,-4.153,0.000,7.267e+17,3.477e-51
18.553,0.169,-4.153,0.000,7.629e+17,3.414e-51
18.569,0.168,-4.154,0.000,8.007e+17,3.352e-51
18.585,0.168,-4.154,0.000,8.401e+17,3.292e-51
18.601,0.167,-4.155,0.000,8.813e+17,3.233e-51
18.617,0.167,-4.155,0.000,9.243e+17,3.175e-51
18.633,0.166,-4.156,0.000,9.691e+17,3.119e-51
18.648,0.166,-4.156,0.000,1.016e+18,3.064e-51
18.664,0.165,-4.157,0.000,1.064e+18,3.010e-51
18.680,0.165,-4.157,0.000,1.115e+18,2.957e-51
18.695,0.164,-4.158,0.000,1.168e+18,2.906e-51
18.711,0.164,-4.158,0.000,1.223e+18,2.855e-51
18.726,0.164,-4.158,0.000,1.281e+18,2.806e-51
18.741,0.163,-4.159,0.000,1.340e+18,2.757e-51
18.756,0.163,-4.159,0.000,1.403e+18,2.710e-51
18.772,0.162,-4.160,0.000,1.468e+18,2.664e-51
18.787,0.162,-4.160,0.000,1.535e+18,2.618e-51
18.802,0.161,-4.161,0.000,1.605e+18,2.574e-51
18.816,0.161,-4.161,0.000,1.678e+18,2.530e-51
18.831,0.160,-4.162,0.000,1.754e+18,2.487e-51
18.846,0.160,-4.162,0.000,1.833e+18,2.446e-51
18.861,0.160,-4.162,0.000,1.915e+18,2.405e-51
18.875,0.159,-4.163,0.000,2.000e+18,2.364e-51
18.890,0.159,-4.163,0.000,2.089e+18,2.325e-51
18.904,0.158,-4.164,0.000,2.181e+18,2.286e-51
18.919,0.158,-4.164,0.000,2.277e+18,2.249e-51
18.933,0.157,-4.165,0.000,2.376e+18,2.211e-51
18.947,0.157,-4.165,0.000,2.480e+18,2.175e-51
18.961,0.157,-4.165,0.000,2.587e+18,2.139e-51
18.976,0.156,-4.166,0.000,2.698e+18,2.104e-51
18.990,0.156,-4.166,0.000,2.813e+18,2.070e-51
19.004,0.155,-4.167,0.000,2.933e+18,2.036e-51
19.017,0.155,-4.167,0.000,3.058e+18,2.003e-51
19.031,0.154,-4.168,0.000,3.186e+18,1.970e-51
19.045,0.154,-4.168,0.000,3.320e+18,1.938e-51
19.059,0.154,-4.168,0.000,3.459e+18,1.907e-51
19.073,0.153,-4.169,0.000,3.602e+18,1.876e-51
19.086,0.153,-4.169,0.000,3.751e+18,1.846e-51
19.100,0.152,-4.170,0.000,3.906e+18,1.816e-51
19.113,0.152,-4.170,0.000,4.066e+18,1.787e-51
19.127,0.152,-4.171,0.000,4.231e+18,1.758e-51
19.140,0.151,-4.171,0.000,4.403e+18,1.730e-51
19.153,0.151,-4.171,0.000,4.581e+18,1.702e-51
19.166,0.150,-4.172,0.000,4.765e+18,1.675e-51
19.180,0.150,-4.172,0.000,4.955e+18,1.648e-51
19.193,0.149,-4.173,0.000,5.153e+18,1.622e-51
19.206,0.149,-4.173,0.000,5.357e+18,1.596e-51
19.219,0.149,-4.173,0.000,5.568e+18,1.571e-51
19.232,0.148,-4.174,0.000,5.787e+18,1.545e-51
19.245,0.148,-4.174,0.000,6.013e+18,1.521e-51
19.257,0.147,-4.175,0.000,6.246e+18,1.496e-51
19.270,0.147,-4.175,0.000,6.488e+18,1.473e-51
19.283,0.147,-4.176,0.000,6.738e+18,1.449e-51
19.296,0.146,-4.176,0.000,6.996e+18,1.426e-51
19.308,0.146,-4.176,0.000,7.264e+18,1.403e-51
19.321,0.145,-4.177,0.000,7.540e+18,1.381e-51
19.333,0.145,-4.177,0.000,7.825e+18,1.358e-51
19.346,0.144,-4.178,0.000,8.119e+18,1.337e-51
19.358,0.144,-4.178,0.000,8.424e+18,1.315e-51
19.371,0.144,-4.178,0.000,8.738e+18,1.294e-51
19.383,0.143,-4.179,0.000,9.063e+18,1.273e-51
19.395,0.143,-4.179,0.000,9.398e+18,1.252e-51
19.407,0.142,-4.180,0.000,9.744e+18,1.232e-51
19.420,0.142,-4.180,0.000,1.010e+19,1.212e-51
19.432,0.141,-4.181,0.000,1.047e+19,1.192e-51
19.444,0.141,-4.181,0.000,1.085e+19,1.173e-51
19.456,0.141,-4.181,0.000,1.124e+19,1.154e-51
19.468,0.140,-4.182,0.000,1.165e+19,1.135e-51
19.480,0.140,-4.182,0.000,1.207e+19,1.116e-51
19.491,0.139,-4.183,0.000,1.250e+19,1.098e-51
19.503,0.139,-4.183,0.000,1.294e+19,1.080e-51
19.515,0.138,-4.184,0.000,1.340e+19,1.062e-51
19.527,0.138,-4.184,0.000,1.387e+19,1.044e-51
19.538,0.138,-4.184,0.000,1.436e+19,1.026e-51
19.550,0.137,-4.185,0.000,1.486e+19,1.009e-51
19.562,0.137,-4.185,0.000,1.538e+19,9.921e-52
19.573,0.136,-4.186,0.000,1.591e+19,9.753e-52
19.585,0.136,-4.186,0.000,1.646e+19,9.586e-52
19.596,0.135,-4.187,0.000,1.702e+19,9.422e-52
19.608,0.135,-4.187,0.000,1.761e+19,9.259e-52
19.619,0.134,-4.188,0.000,1.820e+19,9.099e-52
19.630,0.134,-4.188,0.000,1.882e+19,8.940e-52
19.642,0.134,-4.189,0.000,1.946e+19,8.783e-52
19.653,0.133,-4.189,0.000,2.011e+19,8.628e-52
19.664,0.133,-4.189,0.000,2.079e+19,8.475e-52
19.675,0.132,-4.190,0.000,2.148e+19,8.323e-52
19.686,0.132,-4.190,0.000,2.219e+19,8.173e-52
19.697,0.131,-4.191,0.000,2.293e+19,8.025e-52
19.708,0.131,-4.191,0.000,2.368e+19,7.879e-52
19.719,0.130,-4.192,0.000,2.446e+19,7.734e-52
19.730,0.130,-4.192,0.000,2.526e+19,7.591e-52
19.741,0.129,-4.193,0.000,2.608e+19,7.449e-52
19.752,0.129,-4.193,0.000,2.692e+19,7.309e-52
19.763,0.128,-4.194,0.000,2.779e+19,7.170e-52
19.774,0.128,-4.194,0.000,2.869e+19,7.033e-52
19.784,0.127,-4.195,0.000,2.960e+19,6.897e-52
19.795,0.127,-4.195,0.000,3.055e+19,6.763e-52
19.806,0.126,-4.196,0.000,3.152e+19,6.630e-52
19.816,0.126,-4.196,0.000,3.251e+19,6.499e-52
19.827,0.125,-4.197,0.000,3.354e+19,6.369e-52
19.838,0.125,-4.197,0.000,3.459e+19,6.240e-52
19.848,0.124,-4.198,0.000,3.567e+19,6.113e-52
19.859,0.124,-4.198,0.000,3.678e+19,5.987e-52
19.869,0.123,-4.199,0.000,3.792e+19,5.862e-52
19.880,0.123,-4.200,0.000,3.909e+19,5.739e-52
19.890,0.122,-4.200,0.000,4.029e+19,5.617e-52
19.900,0.121,-4.201,0.000,4.152e+19,5.496e-52
19.911,0.121,-4.201,0.000,4.279e+19,5.377e-52
19.921,0.120,-4.202,0.000,4.409e+19,5.259e-52
19.931,0.120,-4.202,0.000,4.542e+19,5.142e-52
19.941,0.119,-4.203,0.000,4.679e+19,5.027e-52
19.951,0.119,-4.204,0.000,4.819e+19,4.912e-52
19.962,0.118,-4.204,0.000,4.963e+19,4.800e-52
19.972,0.117,-4.205,0.000,5.111e+19,4.688e-52
19.982,0.117,-4.205,0.000,5.262e+19,4.577e-52
19.992,0.116,-4.206,0.000,5.418e+19,4.495e-52
20.000,-0.212,-4.133,0.000,5.549e+19,4.192e-49
20.010,-0.606,-4.043,0.000,5.678e+19,9.842e-49
20.020,-0.602,-4.040,0.000,5.807e+19,1.120e-48
20.030,-0.599,-4.036,0.000,5.935e+19,1.284e-48
20.040,-0.595,-4.033,0.000,6.063e+19,1.472e-48
20.050,-0.592,-4.029,0.000,6.190e+19,1.687e-48
20.060,-0.588,-4.026,0.000,6.316e+19,1.934e-48
20.071,-0.585,-4.022,0.000,6.441e+19,2.217e-48
20.081,-0.581,-4.019,0.000,6.565e+19,2.542e-48
20.091,-0.578,-4.015,0.000,6.688e+19,2.914e-48
20.101,-0.574,-4.012,0.000,6.811e+19,3.340e-48
20.112,-0.571,-4.008,0.000,6.931e+19,3.830e-48
20.122,-0.567,-4.005,0.000,7.051e+19,4.390e-48
20.132,-0.563,-4.001,0.000,7.169e+19,5.033e-48
20.143,-0.560,-3.998,0.000,7.286e+19,5.769e-48
20.153,-0.556,-3.994,0.000,7.401e+19,6.613e-48
20.164,-0.553,-3.991,0.000,7.514e+19,7.580e-48
20.174,-0.549,-3.987,0.000,7.626e+19,8.688e-48
20.185,-0.546,-3.983,0.000,7.736e+19,9.957e-48
20.196,-0.542,-3.980,0.000,7.844e+19,1.141e-47
20.206,-0.539,-3.976,0.000,7.950e+19,1.307e-47
20.217,-0.535,-3.973,0.000,8.054e+19,1.498e-47
20.228,-0.532,-3.969,0.000,8.156e+19,1.716e-47
20.239,-0.528,-3.966,0.000,8.256e+19,1.966e-47
20.249,-0.525,-3.962,0.000,8.354e+19,2.251e-47
20.260,-0.521,-3.959,0.000,8.449e+19,2.578e-47
20.271,-0.518,-3.955,0.000,8.542e+19,2.951e-47
20.282,-0.514,-3.952,0.000,8.633e+19,3.378e-47
20.293,-0.511,-3.948,0.000,8.721e+19,3.866e-47
20.304,-0.507,-3.945,0.000,8.807e+19,4.424e-47
20.315,-0.504,-3.941,0.000,8.890e+19,5.061e-47
20.326,-0.500,-3.938,0.000,8.971e+19,5.789e-47
20.337,-0.497,-3.934,0.000,9.049e+19,6.619e-47
20.349,-0.493,-3.931,0.000,9.124e+19,7.567e-47
20.360,-0.490,-3.928,0.000,9.197e+19,8.649e-47
20.371,-0.487,-3.924,0.000,9.267e+19,9.882e-47
20.382,-0.483,-3.921,0.000,9.334e+19,1.129e-46
20.394,-0.480,-3.917,0.000,9.398e+19,1.289e-46
20.405,-0.476,-3.914,0.000,9.459e+19,1.472e-46
20.417,-0.473,-3.910,0.000,9.517e+19,1.680e-46
20.428,-0.469,-3.907,0.000,9.573e+19,1.916e-46
20.440,-0.466,-3.904,0.000,9.625e+19,2.186e-46
20.451,-0.463,-3.900,0.000,9.674e+19,2.492e-46
20.463,-0.459,-3.897,0.000,9.721e+19,2.841e-46
20.474,-0.456,-3.893,0.000,9.764e+19,3.237e-46
20.486,-0.452,-3.890,0.000,9.804e+19,3.686e-46
20.498,-0.449,-3.887,0.000,9.841e+19,4.197e-46
20.510,-0.446,-3.883,0.000,9.875e+19,4.776e-46
20.522,-0.442,-3.880,0.000,9.906e+19,5.434e-46
20.533,-0.439,-3.877,0.000,9.934e+19,6.179e-46
20.545,-0.436,-3.873,0.000,9.959e+19,7.024e-46
20.557,-0.433,-3.870,0.000,9.981e+19,7.980e-46
20.569,-0.429,-3.867,0.000,9.999e+19,9.063e-46
20.582,-0.426,-3.864,0.000,1.001e+20,1.029e-45
20.594,-0.423,-3.860,0.000,1.003e+20,1.167e-45
20.606,-0.419,-3.857,0.000,1.004e+20,1.324e-45
20.618,-0.416,-3.854,0.000,1.004e+20,1.501e-45
20.630,-0.413,-3.851,0.000,1.005e+20,1.701e-45
20.643,-0.410,-3.847,0.000,1.005e+20,1.926e-45
20.655,-0.407,-3.844,0.000,1.004e+20,2.180e-45
20.668,-0.403,-3.841,0.000,1.004e+20,2.467e-45
20.680,-0.400,-3.838,0.000,1.003e+20,2.789e-45
20.693,-0.397,-3.835,0.000,1.002e+20,3.152e-45
20.705,-0.394,-3.831,0.000,1.000e+20,3.561e-45
20.718,-0.391,-3.828,0.000,9.983e+19,4.020e-45
20.731,-0.388,-3.825,0.000,9.962e+19,4.536e-45
20.743,-0.384,-3.822,0.000,9.939e+19,5.116e-45
20.756,-0.381,-3.819,0.000,9.912e+19,5.766e-45
20.769,-0.378,-3.816,0.000,9.883e+19,6.495e-45
20.782,-0.375,-3.813,0.000,9.851e+19,7.313e-45
20.795,-0.372,-3.810,0.000,9.817e+19,8.228e-45
20.808,-0.369,-3.807,0.000,9.780e+19,9.253e-45
20.821,-0.366,-3.804,0.000,9.740e+19,1.040e-44
20.834,-0.363,-3.801,0.000,9.697e+19,1.168e-44
20.848,-0.360,-3.798,0.000,9.652e+19,1.311e-44
20.861,-0.357,-3.795,0.000,9.605e+19,1.471e-44
20.874,-0.354,-3.792,0.000,9.555e+19,1.649e-44
20.888,-0.351,-3.789,0.000,9.503e+19,1.848e-44
20.901,-0.348,-3.786,0.000,9.448e+19,2.069e-44
20.915,-0.345,-3.783,0.000,9.391e+19,2.316e-44
20.928,-0.343,-3.780,0.000,9.332e+19,2.590e-44
20.942,-0.340,-3.777,0.000,9.271e+19,2.895e-44
20.956,-0.337,-3.774,0.000,9.207e+19,3.233e-44
20.969,-0.334,-3.772,0.000,9.142e+19,3.609e-44
20.983,-0.331,-3.769,0.000,9.075e+19,4.026e-44
20.997,-0.328,-3.766,0.000,9.005e+19,4.488e-44
21.011,-0.326,-3.763,0.000,8.934e+19,5.000e-44
21.025,-0.323,-3.760,0.000,8.861e+19,5.567e-44
21.039,-0.320,-3.758,0.000,8.786e+19,6.194e-44
21.053,-0.317,-3.755,0.000,8.710e+19,6.888e-44
21.068,-0.315,-3.752,0.000,8.632e+19,7.653e-44
21.082,-0.312,-3.749,0.000,8.552e+19,8.499e-44
21.096,-0.309,-3.747,0.000,8.471e+19,9.432e-44
21.111,-0.306,-3.744,0.000,8.389e+19,1.046e-43
21.125,-0.304,-3.741,0.000,8.305e+19,1.159e-43
21.140,-0.301,-3.739,0.000,8.219e+19,1.284e-43
21.155,-0.299,-3.736,0.000,8.133e+19,1.421e-43
21.169,-0.296,-3.734,0.000,8.046e+19,1.572e-43
21.184,-0.293,-3.731,0.000,7.957e+19,1.737e-43
21.199,-0.291,-3.728,0.000,7.867e+19,1.919e-43
21.214,-0.288,-3.726,0.000,7.777e+19,2.118e-43
21.229,-0.286,-3.723,0.000,7.685e+19,2.337e-43
21.244,-0.283,-3.721,0.000,7.593e+19,2.576e-43
21.259,-0.281,-3.718,0.000,7.500e+19,2.839e-43
21.275,-0.278,-3.716,0.000,7.406e+19,3.125e-43
21.290,-0.276,-3.713,0.000,7.311e+19,3.439e-43
21.305,-0.273,-3.711,0.000,7.216e+19,3.781e-43
21.321,-0.271,-3.708,0.000,7.121e+19,4.155e-43
21.336,-0.268,-3.706,0.000,7.025e+19,4.563e-43
21.352,-0.266,-3.704,0.000,6.928e+19,5.008e-43
21.368,-0.264,-3.701,0.000,6.832e+19,5.492e-43
21.384,-0.261,-3.699,0.000,6.735e+19,6.020e-43
21.400,-0.259,-3.696,0.000,6.638e+19,6.594e-43
21.416,-0.256,-3.694,0.000,6.540e+19,7.218e-43
21.432,-0.254,-3.692,0.000,6.443e+19,7.896e-43
21.448,-0.252,-3.689,0.000,6.346e+19,8.633e-43
21.464,-0.250,-3.687,0.000,6.248e+19,9.433e-43
21.480,-0.247,-3.685,0.000,6.151e+19,1.030e-42
21.497,-0.245,-3.683,0.000,6.054e+19,1.124e-42
21.513,-0.243,-3.680,0.000,5.957e+19,1.226e-42
21.530,-0.241,-3.678,0.000,5.860e+19,1.336e-42
21.547,-0.238,-3.676,0.000,5.764e+19,1.456e-42
21.564,-0.236,-3.674,0.000,5.668e+19,1.585e-42
21.580,-0.234,-3.672,0.000,5.573e+19,1.724e-42
21.597,-0.232,-3.669,0.000,5.478e+19,1.875e-42
21.615,-0.230,-3.667,0.000,5.383e+19,2.038e-42
21.632,-0.228,-3.665,0.000,5.289e+19,2.214e-42
21.649,-0.225,-3.663,0.000,5.196e+19,2.403e-42
